A321_15_11, [196, 1396, 2418, 3538, 4688, 5711, 6888, 8421], [839, 1885, 3012, 4136, 5180, 6355, 7618], 7, 7 
A321_10_3, [183, 1164, 2117, 3024, 3912, 4844, 5756, 6646, 7549, 8610, 9559, 11089], [708, 1600, 2568, 3463, 4376, 5309, 6190, 7074, 8135, 9111, 10206], 11, 11 
A321_5_1, [192, 1077, 1795, 2468, 3252, 3900, 4678, 5436, 6227, 7052, 7827, 8576, 9318, 10015, 10765, 11469, 12222, 12896, 13622, 14812], [638, 1445, 2141, 2836, 3544, 4274, 5014, 5810, 6602, 7432, 8186, 8917, 9636, 10386, 11107, 11814, 12542, 13236, 13955], 19, 19 
T417_10_3, [687, 2521, 3643, 4700, 5864, 7140, 8358, 9544, 10650, 11779, 12892, 14214, 16092, 18565, 19862, 24873], [1843, 3050, 4161, 5248, 6511, 7716, 8923, 10038, 11230, 12328, 13508, 14760, 17748, 19152, 20544], 15, 15 
P714_10_9, [290, 1304, 2015, 2758, 3468, 4206, 4960, 5784, 6664, 7624, 9412], [910, 1672, 2418, 3147, 3872, 4654, 5437, 6227, 7172, 8390], 10, 10 
G998_10_2, [519, 1776, 2717, 3680, 4548, 5342, 6256, 7222, 8058, 8955, 9860, 10816, 11800], [1304, 2234, 3204, 4090, 4926, 5752, 6752, 7631, 8468, 9400, 10320, 11288], 12, 12 
T456_10_1, [1042, 2885, 3810, 4722, 5670, 6566, 7496, 8414, 9388, 10352, 11352, 12344, 13403, 14472, 15719, 16792, 18320], [2368, 3324, 4236, 5158, 6124, 7017, 7950, 8888, 9873, 10844, 11830, 12842, 13910, 15058, 16275, 17492], 16, 16 
G998_15_1, [433, 1598, 2682, 3532, 4423, 5274, 6072, 6908, 7851, 8804, 10132], [1106, 2152, 3124, 3962, 4824, 5688, 6477, 7363, 8340, 9285], 10, 10 
P714_10_4, [338, 1314, 2040, 2786, 3540, 4358, 5186, 5996, 6834, 7688, 8580, 9598, 10632, 13008], [956, 1684, 2414, 3168, 3959, 4782, 5606, 6440, 7300, 8133, 9101, 10149, 11382], 13, 13 
T456_10_4, [792, 2262, 3147, 4082, 4956, 5926, 6754, 7748, 8728, 9750, 10796, 11874, 13032, 14216, 16008], [1806, 2693, 3588, 4526, 5426, 6334, 7250, 8218, 9222, 10218, 11363, 12402, 13667, 14974], 14, 14 
P714_10_1, [1066, 2816, 3530, 4257, 4969, 5734, 6526, 7301, 8168, 9023, 9970, 10936, 11951, 12983, 14835], [2436, 3156, 3887, 4602, 5345, 6108, 6884, 7738, 8592, 9522, 10461, 11489, 12532, 13692], 14, 14 
A321_15_8, [268, 1526, 2612, 3702, 4936, 6309, 7548, 8877, 10416, 11922, 13708], [1026, 2047, 3184, 4334, 5630, 6941, 8252, 9756, 11277, 12719], 10, 10 
A321_10_6, [152, 1087, 2018, 2948, 3840, 4807, 5782, 6742, 7705, 8700, 9764, 10734, 11876, 13404], [678, 1560, 2472, 3418, 4331, 5296, 6252, 7208, 8239, 9264, 10260, 11340, 12459], 13, 13 
T417_5_2, [430, 1674, 2323, 2947, 3588, 4273, 4879, 5532, 6212, 6884, 7564, 8250, 9114, 9743, 10370, 10964, 11796, 12422, 13002, 13644, 14328, 15006, 15637, 16334, 17083, 17806, 18564, 19308, 20948], [1186, 2014, 2639, 3288, 3958, 4590, 5186, 5838, 6536, 7200, 7908, 8644, 9419, 10084, 10686, 11376, 12119, 12752, 13328, 14004, 14668, 15324, 16020, 16693, 17403, 18216, 18956, 19724], 28, 28 
A321_15_14, [163, 1196, 2238, 3357, 4489, 5653, 6956, 8462, 9934, 11716], [742, 1717, 2797, 3954, 5107, 6406, 7778, 9410, 10690], 9, 9 
P714_5_3, [346, 1207, 1882, 2542, 3178, 3790, 4320, 4815, 5316, 5837, 6387, 6988, 7598, 8244, 8928, 9618, 10283, 11116, 11838, 12710, 13522, 14494, 15471, 16501, 17723, 19530], [896, 1550, 2200, 2842, 3476, 4058, 4564, 5058, 5569, 6098, 6702, 7276, 7896, 8586, 9236, 9930, 10670, 11438, 12308, 13086, 13988, 14933, 16044, 17122, 18204], 25, 25 
A321_15_5, [163, 1166, 2117, 3140, 4154, 5339, 6600, 7850, 9080, 10308, 11998], [676, 1635, 2681, 3642, 4764, 6007, 7270, 8456, 9747, 10978], 10, 10 
A321_5_4, [168, 934, 1761, 2608, 3446, 4323, 5136, 6047, 7001, 7810, 8712, 9573, 10388, 11162, 12027, 12782, 13640, 14511, 15446, 16290, 17085, 17914, 18764, 19598, 20535, 21334, 22238, 23116, 24525], [562, 1328, 2160, 3042, 3888, 4690, 5571, 6494, 7398, 8246, 9127, 9986, 10744, 11542, 12372, 13186, 14059, 14999, 15845, 16678, 17492, 18341, 19160, 20082, 20892, 21834, 22676, 23584], 28, 28 
A321_5_3, [158, 1025, 1800, 2622, 3444, 4316, 5242, 6126, 7150, 8042, 9004, 10028, 11035, 12034, 12952, 13942, 14808, 16204], [599, 1377, 2202, 3021, 3871, 4722, 5659, 6654, 7576, 8502, 9501, 10510, 11521, 12491, 13427, 14352, 15257], 17, 17 
T417_10_1, [546, 1998, 2877, 3751, 4624, 5410, 6342, 7194, 8732, 9840, 10964, 12070, 13122, 14240, 15488, 16570, 18048, 19306, 21296],[ 1509, 2438, 3296, 4188, 5010, 5862, 6760, 7926, 9253, 10362, 11511, 12602, 13708, 14848, 16080, 17293, 18557, 19760], 18, 18 
A321_10_10, [130, 1028, 1919, 2806, 3729, 4604, 5470, 6408, 7394, 8388, 9377, 10901], [626, 1444, 2302, 3249, 4170, 5042, 5983, 6910, 7882, 8938, 10030], 11, 11 
P714_5_4, [138, 690, 1184, 1668, 2144, 2624, 3109, 3608, 4078, 4569, 5095, 5611, 6160, 6688, 7195, 7732, 8256, 8773, 9310, 9828, 10338, 10876, 11560, 12396, 13288, 14142, 15114, 16038, 17142, 18362], [447, 942, 1429, 1903, 2392, 2866, 3353, 3842, 4320, 4830, 5358, 5886, 6416, 6928, 7450, 7996, 8506, 9032, 9572, 10076, 10616, 11239, 12002, 12827, 13707, 14718, 15591, 16622, 17730], 29, 29 
A321_15_2, [256, 1497, 2457, 3447, 4497, 5580, 6734, 8012, 9382, 11764], [989, 1977, 2944, 3998, 5077, 6166, 7435, 8760, 10082], 9, 9 
A321_15_13, [222, 1233, 2200, 3164, 4253, 5456, 6745, 8128, 9550, 11457], [793, 1724, 2716, 3758, 4890, 6166, 7538, 8928, 10591], 9, 9 
T417_15_2, [1032, 3198, 4239, 5391, 6555, 7756, 9018, 10416, 11782, 13279, 15255], [2615, 3712, 4782, 5936, 7134, 8324, 9718, 11061, 12504, 13625], 10, 10 
A321_10_1, [179, 1298, 2143, 3010, 3907, 4798, 5642, 6498, 7324, 8221, 9274, 10298, 11470, 12709, 14548], [819, 1726, 2564, 3468, 4356, 5226, 6074, 6906, 7784, 8786, 9803, 10949, 12162, 13451], 14, 14 
P714_10_6, [211, 987, 1634, 2290, 2906, 3531, 4248, 4951, 5667, 6445, 7248, 8098, 9094, 10330], [642, 1320, 1966, 2602, 3236, 3914, 4620, 5338, 6084, 6898, 7714, 8702, 9614], 13, 13 
T456_10_3, [893, 2506, 3391, 4315, 5266, 6240, 7154, 8134, 9137, 10131, 11323, 12660, 14452], [1996, 2924, 3854, 4772, 5724, 6699, 7634, 8616, 9620, 10656, 11968, 13484], 12, 12 
P714_10_3, [256, 1248, 2030, 2806, 3584, 4398, 5271, 6178, 7047, 7963, 8856, 9791, 10934, 12077, 14157], [814, 1621, 2414, 3196, 3975, 4844, 5732, 6634, 7522, 8436, 9338, 10394, 11501, 12822], 14, 14 
A321_10_9, [156, 1120, 1988, 2928, 3899, 4837, 5860, 6891, 7914, 8972, 10036, 11106, 12213, 13816], [662, 1564, 2436, 3424, 4382, 5346, 6398, 7430, 8470, 9528, 10602, 11686, 12842], 13, 13 
A321_15_7, [398, 1690, 2747, 3868, 4896, 5984, 7203, 8556, 9932, 11524], [1196, 2232, 3358, 4388, 5427, 6626, 7925, 9358, 10662], 9, 9 
P714_5_1, [210, 910, 1528, 2121, 2705, 3260, 3831, 4418, 5074, 5680, 6280, 6982, 7690, 8346, 8991, 9730, 10462, 11242, 12039, 12834, 13591, 14416, 15194, 16150, 16962, 18202, 19344, 20423], [622, 1226, 1824, 2406, 2984, 3552, 4130, 4750, 5364, 5976, 6618, 7314, 8015, 8642, 9360, 10095, 10858, 11624, 12351, 13204, 13988, 14790, 15692, 16503, 17594, 18753, 19896], 27, 27 
A321_5_6, [414, 1434, 2097, 2896, 3770, 4570, 5346, 6062, 6823, 7558, 8318, 9004, 9714, 10426, 11191, 11932, 12674, 13376, 14078, 14836, 15592, 16370, 17056, 17767, 18462, 19202, 19900, 20580, 21260, 22512], [1087, 1732, 2458, 3311, 4142, 4946, 5704, 6434, 7181, 7904, 8633, 9358, 10052, 10802, 11549, 12291, 13024, 13730, 14461, 15224, 15964, 16710, 17410, 18120, 18836, 19544, 20255, 20932, 21598], 29, 29 
A321_10_4, [165, 1087, 1986, 2975, 3950, 5017, 6008, 7063, 8204, 9344, 10504, 12357], [621, 1510, 2478, 3466, 4545, 5518, 6548, 7657, 8854, 9992, 11264], 11, 11 
A321_15_16, [191, 1176, 2116, 3120, 4189, 5278, 6332, 7436, 8676, 9984, 11792], [714, 1673, 2640, 3683, 4726, 5823, 6912, 8120, 9376, 10804], 10, 10 
A321_15_18, [138, 1248, 2229, 3300, 4386, 5544, 6782, 8485], [712, 1755, 2779, 3864, 5000, 6186, 7494], 7, 7 
A321_15_9, [339, 1629, 2678, 3770, 4842, 5911, 7110, 8356, 10304], [1121, 2160, 3222, 4306, 5392, 6527, 7780, 9102], 8, 8 
A321_15_15, [492, 1982, 3010, 4032, 5090, 6164, 7342, 8632, 10082, 11698], [1469, 2475, 3562, 4580, 5646, 6804, 8055, 9504, 10818], 9, 9 
A321_10_7, [280, 1395, 2276, 3104, 3964, 4838, 5780, 6639, 7498, 8404, 9342, 10286, 11217, 12320, 13924], [950, 1818, 2692, 3526, 4370, 5284, 6216, 7108, 7939, 8872, 9860, 10768, 11812, 12974], 14, 14 
T417_5_3, [479, 2100, 2886, 3656, 4454, 5228, 5954, 6692, 7418, 8300, 9126, 9874, 10707, 11520, 12332, 13180, 14060, 14980, 16034, 17792], [1457, 2460, 3266, 4032, 4806, 5598, 6298, 7012, 7805, 8698, 9504, 10282, 11086, 11915, 12694, 13576, 14488, 15479, 16461], 19, 19 
A321_5_5, [120, 920, 1587, 2326, 3143, 3928, 4719, 5524, 6218, 6969, 7762, 8472, 9228, 9937, 10676, 11424, 12180, 12932, 14032], [528, 1235, 1923, 2690, 3518, 4312, 5101, 5837, 6574, 7308, 8082, 8822, 9593, 10314, 11046, 11798, 12554, 13314], 18, 18 
G998_5_1, [350, 1438, 2358, 3338, 4334, 5376, 6348, 7226, 8152, 9034, 9870, 10808, 11714, 12635, 13523, 14430, 15464, 16432, 17474, 18410, 19282, 20178, 21290, 22362, 23382, 24562, 26506], [964, 1932, 2834, 3845, 4844, 5870, 6764, 7663, 8575, 9430, 10343, 11274, 12143, 13057, 13940, 14920, 15916, 16968, 17943, 18821, 19696, 20778, 21817, 22868, 23931, 25168], 26, 26 
P714_5_2, [166, 875, 1503, 2066, 2576, 3080, 3596, 4128, 4655, 5208, 5740, 6261, 6810, 7380, 7964, 8580, 9238, 9894, 10605, 11314, 12144, 12894, 13709, 14491, 15306, 16122, 17009, 17908, 18877, 19940, 20983, 23176], [560, 1191, 1791, 2298, 2838, 3344, 3859, 4380, 4936, 5474, 5992, 6516, 7107, 7663, 8270, 8890, 9570, 10250, 10954, 11698, 12524, 13272, 14125, 14975, 15743, 16528, 17488, 18388, 19426, 20430, 21671], 31, 31 
A321_15_4, [150, 1054, 1947, 2876, 3927, 4996, 6098, 7258, 8439, 9732, 11092, 12836], [663, 1487, 2414, 3407, 4471, 5553, 6753, 7914, 9200, 10417, 11802], 11, 11 
A321_10_2, [188, 1303, 2218, 3136, 4108, 5122, 6161, 7289, 8393, 9958], [809, 1757, 2652, 3606, 4610, 5618, 6738, 7832, 8998], 9, 9 
A321_15_10, [150, 1210, 2229, 3351, 4528, 5593, 6756, 7901, 9628], [722, 1700, 2765, 3940, 5100, 6180, 7416, 8636], 8, 8 
T417_15_1, [1548, 4524, 5630, 6755, 7848, 9007, 10156, 11330, 12558, 13866, 15184, 21702], [3664, 5062, 6128, 7236, 8358, 9500, 10690, 11858, 13124, 14507, 15832], 11, 11 
A321_15_1, [636, 2138, 3160, 4178, 5309, 6454, 7608, 8792, 10016, 11386, 12700, 14804], [1627, 2646, 3674, 4751, 5880, 7057, 8244, 9437, 10768, 12126, 13496], 11, 11 
T417_10_2, [650, 1552, 2666, 3548, 4612, 5626, 6676, 7726, 8994, 10225, 11290, 12346, 13485, 14652, 15922, 17206, 18679, 19900], [1000, 2168, 3086, 4080, 5123, 6168, 7204, 8282, 9693, 10736, 11792, 12854, 14101, 15312, 16549, 17967, 19100], 17, 17
P714_10_8, [184, 998, 1702, 2454, 3203, 4038, 4862, 5816, 6774, 7850, 9437], [660, 1382, 2108, 2860, 3673, 4476, 5344, 6318, 7370, 8452], 10, 10 
G998_10_3, [360, 1458, 2340, 3147, 3990, 5028, 5950, 6812, 7609, 8500, 9357, 10194, 11418], [1000, 1902, 2734, 3568, 4398, 5554, 6338, 7225, 8036, 8922, 9763, 10646], 12, 12 
P714_10_5, [235, 1192, 2032, 2878, 3721, 4622, 5574, 6598, 7651, 8818, 10058, 11000], [770, 1620, 2456, 3306, 4188, 5100, 6112, 7091, 8252, 9525, 10584], 11, 11 
P714_10_2, [336, 1336, 2107, 2872, 3670, 4465, 5286, 6127, 6958, 7837, 8726, 9724, 10740, 11734, 13751], [919, 1710, 2500, 3279, 4078, 4892, 5718, 6526, 7418, 8316, 9248, 10265, 11270, 12419], 14, 14 
A321_10_8, [286, 1390, 2294, 3314, 4348, 5298, 6302, 7330, 8336, 9298, 10272, 11287, 12752], [947, 1820, 2801, 3810, 4828, 5771, 6834, 7866, 8821, 9830, 10786, 11920], 12, 12 
A321_5_7, [368, 1296, 1910, 2620, 3326, 4048, 4754, 5458, 6153, 6868, 7475, 8104, 8708, 9320, 9953, 10675, 11332, 12004, 12684, 13916], [960, 1596, 2258, 2934, 3669, 4378, 5084, 5773, 6458, 7182, 7784, 8408, 9011, 9625, 10270, 10971, 11628, 12310, 13061], 19, 19 
A321_15_6, [163, 1312, 2306, 3476, 4580, 5764, 6972, 8315, 10079], [787, 1817, 2896, 4076, 5246, 6406, 7757, 9072], 8, 8 
A321_15_17, [204, 1347, 2352, 3460, 4550, 5670, 6858, 8026, 9427, 10948, 12924], [780, 1833, 2932, 3990, 5142, 6299, 7530, 8777, 10325, 11881], 10, 10 
T417_5_1, [400, 1987, 2576, 3169, 3690, 4284, 5179, 5835, 6469, 7090, 7662, 8304, 9324, 9940, 10586, 11769, 13001, 13566, 14098, 14668, 15225, 15780, 17092, 17640, 18192, 18818, 19866, 20500, 21127, 21740, 22792, 23364, 24035, 24688, 25409, 26122, 26889, 27566, 28270, 28980, 29771, 30542, 32063], [1296, 2277, 2872, 3470, 4000, 4696, 5472, 6170, 6775, 7388, 7989, 8768, 9622, 10246, 10948, 12632, 13289, 13866, 14400, 14954, 15482, 16409, 17400, 17942, 18506, 19340, 20144, 20825, 21442, 22270, 23060, 23668, 24350, 25025, 25793, 26460, 27185, 27885, 28633, 29335, 30176, 30822], 42, 42 
A321_10_5, [225, 1410, 2379, 3392, 4472, 5701, 6810, 8083, 9302, 10650, 11885, 13163, 14995], [848, 1894, 2881, 3896, 5093, 6254, 7449, 8678, 10040, 11322, 12573, 13950], 12, 12 
P714_5_5, [258, 1058, 1614, 2154, 2637, 3132, 3592, 4037, 4475, 4903, 5372, 5862, 6346, 6894, 7447, 8078, 8666, 9286, 9914, 10590, 11348, 12210, 13007, 13862, 14775, 16206], [686, 1334, 1899, 2392, 2885, 3366, 3819, 4250, 4684, 5138, 5616, 6113, 6614, 7174, 7768, 8372, 8971, 9608, 10258, 10956, 11830, 12643, 13428, 14388, 15444], 25, 25 
A321_15_3, [180, 1412, 2392, 3406, 4454, 5585, 6810, 7884, 9316, 11699], [876, 1875, 2932, 3925, 5052, 6285, 7355, 8642, 10206], 9, 9 
A321_5_2, [146, 989, 1740, 2444, 3226, 4036, 4832, 5621, 6385, 7201, 7999, 8830, 9686, 10522, 11342, 12124, 13192], [603, 1334, 2050, 2797, 3581, 4394, 5194, 5954, 6783, 7575, 8367, 9217, 10107, 10932, 11702, 12479], 16, 16 
A321_10_11, [212, 1332, 2298, 3248, 4240, 5258, 6326, 7428, 8498, 9544, 11406], [802, 1822, 2761, 3698, 4682, 5791, 6816, 7944, 9030, 10255], 10, 10 
T417_5_4, [1029, 2768, 3750, 4789, 5506, 6234, 6904, 7560, 8208, 8872, 9574, 10492, 11277, 12038, 12826, 13608, 14388, 15244, 16086, 17008, 17989, 19729], [2376, 3138, 4330, 5138, 5856, 6572, 7245, 7892, 8528, 9244, 10011, 10884, 11659, 12434, 13179, 14016, 14820, 15637, 16472, 17424, 18445], 21, 21 
A321_15_12, [172, 1284, 2448, 3508, 4628, 5871, 7255, 8684, 10822], [768, 1869, 2984, 4070, 5318, 6648, 8050, 9672], 8, 8 
T417_15_3, [812, 2826, 4194, 5493, 7042, 8621, 10191, 11666, 14917], [2209, 3468, 4782, 6180, 7734, 9344, 10887, 12546], 8, 8 
T456_10_2, [3116, 6956, 7942, 8882, 9806, 10818, 11779, 12771, 13730, 14760, 16094, 17396, 18982, 20846, 22938], [6480, 7426, 8363, 9314, 10267, 11252, 12256, 13234, 14222, 15306, 16770, 17996, 20095, 21816], 14, 14 
P714_10_7, [220, 1150, 1890, 2602, 3436, 4290, 5218, 6209, 7184, 8242, 9438, 10938], [738, 1528, 2256, 3048, 3855, 4756, 5692, 6748, 7754, 8946, 9870], 11, 11 
G998_10_1, [680, 2172, 3254, 4366, 5598, 6838, 7950, 9020, 9891, 10851, 11912, 12998, 14104, 15812], [1618, 2719, 3766, 4944, 6330, 7440, 8460, 9434, 10354, 11336, 12458, 13570, 14618], 13, 13 
